70
70
70
70
70
70
71
75
82
91
103
116
128
137
144
148
149
147
144
140
136
131
127
122
118
114
110
107
104
103
102
101
102
102
103
103
102
102
100
99
96
94
92
89
87
84
82
80
78
76
75
73
73
72
71
71
71
71
71
71
71
71
71
72
72
72
73
73
73
73
73
73
73
73
73
73
73
76
82
90
101
113
125
135
142
146
148
146
143
139
134
129
124
120
116
112
109
106
103
102
101
101
101
103
104
104
105
105
104
102
101
99
96
94
92
89
87
85
83
82
81
80
80
79
79
80
80
80
81
81
82
82
83
83
83
84
84
84
84
84
84
84
83
83
83
82
82
81
82
83
87
93
102
112
122
132
139
144
145
145
143
139
135
130
125
120
115
110
107
104
102
101
100
101
102
104
106
107
108
108
108
107
106
104
102
100
98
96
94
92
90
88
87
86
85
84
84
83
83
83
83
83
83
83
83
83
83
83
84
83
83
83
83
82
82
81
81
81
83
86
93
101
111
121
130
137
141
142
142
140
136
133
128
124
120
115
112
108
105
103
102
102
102
103
105
106
107
109
109
109
109
108
106
105
103
101
99
97
95
93
92
90
89
87
87
86
85
85
85
85
85
86
86
86
87
87
87
87
87
87
86
85
85
85
88
93
100
109
120
130
139
145
148
149
148
146
142
138
134
129
125
122
118
115
112
109
108
107
107
107
108
109
110
110
110
109
108
107
105
103
100
98
96
93
91
89
87
85
84
83
82
81
81
80
80
80
80
80
80
80
80
80
80
80
80
79
79
79
79
79
79
81
85
92
102
114
126
136
145
150
153
154
152
149
145
140
136
131
127
123
120
116
113
111
109
108
108
108
109
109
109
109
108
107
105
103
101
99
96
94
91
89
87
85
84
82
81
80
79
79
78
78
78
78
78
79
79
79
79
79
79
79
79
79
78
78
78
78
77
78
80
84
90
99
110
122
133
141
147
150
151
149
146
141
136
131
126
121
117
113
110
107
105
103
103
103
103
104
105
105
105
104
103
102
100
97
95
93
90
88
86
84
83
81
80
79
78
78
77
77
77
77
77
77
77
77
77
76
76
76
76
76
75
75
75
74
74
74
74
74
75
78
83
91
101
112
124
134
141
146
148
147
145
141
136
131
126
121
116
112
108
105
103
102
102
103
105
106
108
109
110
110
110
109
107
105
103
101
99
97
95
93
91
90
88
87
86
85
84
84
84
84
84
84
84
84
84
85
85
85
85
85
85
84
84
83
83
82
82
84
87
92
100
110
120
130
138
143
146
146
144
141
136
131
126
120
115
110
106
103
100
99
98
99
100
102
104
106
107
107
107
106
105
103
101
99
97
95
92
91
89
87
86
84
83
82
82
82
82
81
81
82
82
82
83
84
85
85
86
86
86
86
85
86
88
92
98
107
118
129
139
147
153
156
156
155
152
147
142
137
131
126
121
116
112
109
107
106
106
107
108
109
110
111
111
110
109
107
105
102
100
97
94
92
89
87
85
83
82
80
80
79
78
78
78
78
78
78
79
79
80
80
80
80
80
80
80
79
79
80
82
87
94
105
118
131
143
153
160
164
165
164
161
156
151
145
139
134
128
124
119
116
113
111
110
109
110
110
110
110
110
109
107
105
102
99
96
93
90
87
84
81
79
77
75
74
73
72
71
71
71
71
71
71
71
71
71
71
71
72
72
71
71
71
70
70
70
71
74
80
89
101
115
128
140
149
154
157
156
154
149
144
138
132
127
122
117
113
109
105
103
101
101
100
101
101
101
101
100
99
97
95
93
90
87
85
82
79
77
75
73
72
70
69
68
68
68
68
68
68
68
69
69
69
69
70
70
70
70
70
70
70
69
69
69
69
70
72
77
85
96
108
120
131
139
144
146
145
142
138
134
128
123
118
113
109
105
102
100
98
97
97
98
99
100
101
101
100
99
97
95
93
91
88
86
84
82
80
79
78
77
77
76
76
76
76
76
76
76
77
77
78
78
79
80
80
81
81
82
82
82
82
82
82
82
82
82
82
83
87
93
102
112
124
134
142
147
149
149
147
143
138
132
127
121
116
111
107
103
100
99
99
99
100
102
104
106
107
107
107
106
104
103
100
98
96
94
91
90
88
86
85
84
83
83
82
82
82
82
82
83
83
84
84
85
85
86
86
86
86
85
85
85
84
84
84
86
90
97
107
118
129
139
147
152
154
153
150
146
141
136
130
125
120
115
111
107
104
103
102
103
104
106
108
109
110
110
110
109
107
105
103
100
98
96
94
92
90
88
87
86
84
83
83
82
81
81
81
81
81
81
82
82
82
83
83
83
83
83
83
83
83
84
87
94
103
114
126
138
148
155
159
160
159
156
152
147
141
136
131
126
121
117
113
110
108
107
107
107
108
109
110
110
109
108
107
105
102
100
97
94
91
88
86
84
82
80
79
78
77
76
76
75
75
75
75
75
75
76
76
76
77
77
77
76
76
76
75
74
75
77
81
89
100
113
127
140
150
158
162
164
162
159
155
149
144
138
132
127
122
118
114
111
109
108
108
108
108
108
108
108
108
107
105
103
100
97
94
90
87
84
82
79
77
76
74
73
72
71
71
71
70
70
71
71
71
71
72
72
72
72
73
73
73
73
72
72
71
71
73
78
86
98
112
127
141
152
160
164
165
164
160
155
149
143
137
131
126
120
116
111
108
106
105
105
106
106
107
107
107
107
105
103
101
98
95
92
88
85
82
80
77
76
74
73
71
71
70
70
69
69
70
70
70
70
71
71
71
71
71
70
70
70
69
68
67
67
66
67
69
75
84
96
111
126
140
151
159
164
165
163
159
154
147
141
134
127
121
115
110
106
103
101
101
102
103
105
106
107
107
107
106
104
101
98
95
92
89
86
83
80
78
76
74
72
71
70
70
70
70
70
70
71
71
72
73
73
74
74
75
75
75
74
74
73
73
73
74
77
84
94
106
121
135
147
157
162
165
164
160
155
149
142
135
128
121
115
110
106
103
102
102
104
106
108
110
112
112
112
111
109
106
103
100
97
94
91
89
87
85
83
82
81
80
79
78
78
78
78
78
78
79
79
79
79
79
80
80
80
79
78
78
78
79
84
92
103
117
131
145
156
163
167
167
165
160
154
147
140
133
125
119
113
107
103
100
99
99
99
101
103
104
105
105
105
103
101
98
95
92
89
86
82
79
76
74
72
70
68
67
66
65
65
65
65
65
66
66
67
68
69
69
70
70
70
70
70
70
69
69
71
76
85
98
113
130
145
158
168
173
175
173
169
164
157
149
142
135
128
122
117
112
108
106
104
104
104
105
106
107
107
107
106
104
101
98
95
92
89
85
82
79
76
74
72
70
69
68
68
67
67
68
68
68
69
70
70
71
71
71
72
72
72
71
71
70
70
69
69
71
76
85
97
113
130
146
159
169
175
177
176
172
166
160
153
146
139
132
126
120
115
111
109
107
107
107
108
109
109
109
108
107
105
102
99
96
92
89
85
82
78
75
73
71
70
68
68
67
67
67
67
67
67
68
68
69
69
69
69
70
70
70
69
69
69
68
67
67
67
68
71
78
89
104
120
135
148
158
164
166
166
162
157
150
143
136
129
123
116
110
106
102
100
99
99
101
102
103
104
104
104
102
100
97
94
91
88
84
81
78
75
72
70
68
67
66
65
64
64
64
64
65
65
66
67
68
68
69
70
70
70
71
71
70
70
70
69
69
68
68
68
71
76
84
96
110
124
137
147
153
156
156
154
149
144
137
131
124
118
112
106
102
99
97
97
97
99
101
103
105
106
107
107
107
106
105
103
101
99
98
96
94
93
91
89
88
87
86
85
85
85
84
84
84
84
84
84
84
84
84
84
84
84
83
82
81
81
80
81
84
89
98
110
123
135
145
153
157
158
156
152
147
141
135
128
122
116
111
106
102
100
99
99
100
102
104
106
108
109
109
109
107
105
103
101
98
95
93
90
88
86
83
81
80
78
77
77
76
76
76
76
77
78
78
79
79
80
80
80
80
80
79
79
78
79
82
87
96
108
121
135
147
156
162
165
164
161
157
151
145
139
133
127
121
116
112
108
106
104
104
105
106
107
108
109
109
108
107
105
102
99
96
93
90
87
84
81
79
77
76
75
74
73
73
73
73
73
73
73
74
74
75
75
76
76
76
76
76
75
74
74
74
76
82
90
102
117
132
146
157
165
170
171
169
165
160
154
147
141
135
129
123
118
114
111
108
107
107
107
108
109
109
109
108
107
104
102
99
96
92
89
86
83
80
78
76
74
72
71
70
69
69
69
69
70
70
71
71
71
72
72
72
72
72
71
71
70
69
69
68
67
67
68
73
81
93
109
126
143
158
169
176
179
178
175
169
163
156
149
142
135
129
124
119
115
112
111
110
110
110
111
111
111
110
109
107
104
101
97
94
90
87
83
80
78
75
73
72
70
70
69
69
68
68
69
69
69
69
69
69
69
69
69
68
67
67
66
65
64
64
63
63
63
64
68
75
86
100
117
134
148
160
168
171
171
168
163
157
149
142
134
127
120
114
109
105
103
102
102
103
105
107
108
109
109
108
107
104
101
98
94
91
87
84
81
78
76
73
71
70
68
67
67
67
67
67
68
69
70
70
71
72
72
73
73
74
74
73
73
72
71
70
71
73
79
88
102
117
133
147
158
165
169
169
166
161
155
147
140
132
124
117
111
105
101
99
98
99
101
104
106
108
110
110
110
108
106
103
99
96
92
88
85
82
79
77
76
74
73
73
72
72
72
73
73
74
75
76
77
78
79
80
81
81
81
81
80
80
81
85
92
103
116
131
146
159
168
173
175
174
171
165
158
150
142
134
127
120
114
108
105
102
101
102
103
105
106
108
108
108
107
105
102
99
95
91
87
84
80
77
74
71
69
68
66
66
65
65
65
65
66
66
67
68
69
70
70
71
71
71
71
70
70
70
71
75
84
96
111
128
145
158
168
175
177
176
172
167
161
153
146
139
132
126
120
114
110
107
106
105
106
106
107
107
107
107
105
103
101
97
94
90
86
83
79
76
73
70
68
66
65
64
64
63
63
64
64
65
65
66
66
67
67
68
68
68
68
67
67
66
65
65
67
72
80
93
108
125
142
155
165
170
172
171
167
161
155
148
141
135
129
123
117
113
109
106
104
103
103
103
103
103
103
102
101
99
96
93
90
87
83
80
77
74
71
69
68
66
65
65
64
64
64
64
64
65
65
66
66
66
67
67
67
67
67
67
66
66
65
65
64
65
66
70
78
89
102
117
130
141
149
153
153
151
148
143
137
131
125
120
114
109
105
101
98
96
95
95
95
96
97
98
98
98
97
95
93
91
88
85
83
80
78
75
74
72
71
70
70
69
70
70
70
71
71
72
73
74
75
76
76
77
77
77
77
77
77
76
76
75
75
75
76
79
85
94
105
117
129
138
145
148
148
146
142
137
132
126
121
115
110
106
102
99
98
98
99
100
103
105
106
107
108
107
106
104
102
100
98
96
93
91
89
88
86
85
83
82
81
81
81
81
81
81
82
82
83
84
84
85
85
86
86
86
86
85
85
85
85
86
89
95
104
115
126
136
144
148
150
150
147
143
138
133
128
123
118
113
109
106
104
102
102
102
104
105
107
109
110
110
110
109
108
106
104
101
99
97
94
92
91
89
88
87
86
85
84
84
84
84
84
84
85
86
86
86
87
87
87
87
87
86
86
85
85
86
89
94
102
113
124
135
144
150
153
154
153
150
145
141
135
130
126
121
117
113
111
108
107
106
106
106
107
108
108
108
108
106
105
103
101
98
96
94
91
89
87
86
84
83
82
81
80
80
79
79
79
80
80
80
80
80
80
80
80
80
80
79
79
78
78
77
77
77
80
84
92
102
113
124
135
142
147
149
149
146
143
138
134
129
125
121
117
114
111
108
106
105
104
104
105
105
105
105
105
104
103
101
99
97
95
92
90
88
86
84
83
81
80
79
78
78
77
77
77
77
77
78
78
78
78
78
78
78
78
78
78
78
77
77
76
76
76
78
81
88
97
107
119
130
138
144
148
148
147
144
140
136
132
127
123
119
115
112
109
107
105
105
105
105
106
107
107
108
107
106
105
103
101
98
96
93
91
89
87
85
84
82
81
81
80
80
79
79
79
79
79
79
79
80
80
80
80
80
80
79
79
79
78
78
78
77
77
79
82
88
97
108
119
129
137
143
147
147
146
143
139
134
129
124
119
115
111
107
105
103
102
102
103
104
106
107
109
109
109
108
106
104
102
100
98
95
93
91
89
88
86
85
84
83
82
82
82
82
82
82
83
83
83
84
84
85
85
85
85
85
85
84
83
83
82
84
87
92
100
110
121
132
140
147
150
151
149
145
141
136
130
124
119
114
109
105
102
100
100
100
102
104
105
106
107
108
107
106
104
102
100
97
95
92
90
88
86
84
82
81
80
79
78
78
78
79
79
80
81
82
83
84
84
85
85
85
85
85
86
89
94
102
112
123
134
144
151
155
157
156
153
149
144
138
132
126
120
115
111
107
104
103
103
103
104
106
107
108
108
107
106
105
102
100
97
94
91
88
86
83
81
79
78
77
76
75
74
74
74
74
75
75
76
76
77
77
77
77
78
78
78
79
81
87
95
106
119
132
145
155
162
165
166
164
160
155
149
143
137
131
125
120
116
112
109
107
107
106
106
107
107
107
106
105
103
101
99
96
93
91
88
85
82
80
77
75
74
73
72
71
71
70
70
71
71
71
72
72
72
73
73
72
72
72
72
73
76
82
91
103
116
130
142
152
158
161
161
158
154
148
142
136
130
125
119
115
111
107
105
104
103
103
104
104
104
104
103
102
100
98
95
92
89
86
83
80
77
75
73
72
71
70
69
69
68
68
68
69
69
70
70
71
72
72
72
72
72
71
71
71
72
76
82
92
104
117
130
141
149
154
155
154
150
145
138
132
126
120
115
110
105
102
99
98
97
98
98
99
100
100
100
99
98
95
93
90
86
83
80
77
74
71
69
67
66
66
65
66
66
66
67
67
68
69
70
70
71
72
72
73
73
73
73
72
72
72
72
73
77
83
93
104
117
129
139
146
150
150
148
144
139
133
127
121
115
110
105
101
99
97
97
98
100
102
104
105
106
106
106
104
103
100
98
95
92
89
87
85
83
82
81
80
79
78
78
78
78
78
79
79
80
81
81
81
82
82
82
81
81
80
80
80
80
83
88
96
107
119
131
141
148
153
154
153
149
144
139
133
127
121
116
111
106
103
101
100
100
101
103
104
106
107
107
107
106
104
102
99
97
94
91
89
86
84
82
80
78
77
76
75
75
75
75
76
77
78
79
81
82
83
84
84
85
84
84
84
84
87
92
100
110
122
134
145
153
158
159
158
155
151
145
139
134
128
123
118
113
109
106
105
104
104
105
106
107
107
108
107
106
104
102
100
97
95
92
89
86
83
81
79
77
76
75
74
74
73
73
74
74
75
75
76
76
77
77
77
78
78
78
77
77
78
82
88
99
111
125
139
151
159
165
167
166
163
158
152
146
140
134
128
123
118
114
111
108
107
106
106
106
107
107
108
107
106
104
102
99
96
93
90
87
84
81
78
76
74
73
72
71
71
70
70
70
71
71
72
72
73
73
74
74
74
74
74
73
73
74
76
82
91
103
118
133
146
157
163
166
166
164
159
154
148
141
135
129
123
118
113
109
106
105
104
104
104
105
106
106
106
105
103
101
98
95
92
89
85
82
79
76
74
72
70
69
68
67
67
67
67
67
67
68
69
69
70
70
71
71
71
71
70
70
69
69
70
73
80
90
104
119
133
146
155
161
162
161
157
152
145
139
132
125
119
113
108
104
101
99
98
98
99
100
101
102
102
102
100
98
96
93
90
87
83
80
77
74
72
69
68
66
65
64
64
64
64
65
66
66
67
68
69
69
70
70
70
70
70
70
70
69
69
68
69
73
80
90
103
118
132
144
152
156
157
155
151
146
139
132
126
119
113
107
102
99
97
96
97
99
102
104
107
109
110
110
109
107
105
102
100
97
94
92
89
87
86
84
82
81
80
79
78
78
78
78
79
79
80
80
81
81
82
82
82
81
81
80
80
80
83
89
98
110
124
137
147
155
159
160
159
155
150
143
137
130
123
117
111
106
102
99
97
97
98
100
103
105
107
108
108
107
106
104
102
100
97
95
93
91
89
87
85
84
83
82
81
80
79
78
78
78
78
78
78
78
79
79
79
80
80
80
80
82
86
94
105
119
133
146
156
163
166
167
164
160
154
148
142
135
129
123
118
113
110
107
105
105
105
106
108
109
110
110
109
108
106
104
101
97
94
91
88
85
82
79
77
76
74
73
73
72
72
72
72
73
74
74
75
76
76
76
76
76
75
75
75
77
82
90
101
115
130
144
155
163
167
168
166
161
156
150
144
137
131
126
120
115
111
108
106
105
105
106
107
107
107
107
106
105
103
100
97
94
90
87
83
80
78
76
75
74
74
74
74
74
74
74
75
75
75
75
74
74
73
73
72
72
72
71
71
72
76
82
92
105
120
134
146
155
161
163
162
159
154
149
143
137
130
125
119
113
109
105
102
100
99
100
100
101
101
101
101
99
97
95
92
89
85
82
79
77
74
72
70
68
67
66
65
65
65
65
66
66
67
67
68
68
68
68
67
67
67
68
71
77
87
99
112
124
134
141
145
145
143
139
133
128
122
116
110
105
100
95
92
90
89
89
90
91
93
94
95
96
95
94
93
91
89
86
84
82
80
78
76
74
73
72
71
71
71
71
71
71
72
72
73
73
73
74
74
75
78
83
90
100
112
124
134
142
146
148
146
143
138
133
127
120
114
107
101
96
92
89
88
89
91
93
96
98
100
101
101
101
99
97
95
92
89
87
84
81
78
76
74
72
71
70
69
69
69
69
69
69
70
72
75
81
89
100
112
123
133
139
143
144
143
140
137
132
127
121
115
109
104
99
95
93
92
92
92
94
95
96
97
97
96
95
94
91
89
86
84
81
79
76
75
73
72
71
71
71
72
72
73
74
75
76
77
80
84
91
100
111
121
131
137
141
143
142
139
135
130
125
119
114
109
105
101
98
95
94
93
93
94
95
96
96
97
96
96
94
93
91
89
87
85
83
81
80
78
77
76
75
74
74
74
74
74
74
74
75
75
76
78
81
86
93
101
111
119
125
129
130
130
127
123
119
115
111
107
103
100
97
95
93
92
91
92
92
94
95
96
97
97
97
97
96
95
93
92
90
88
87
85
84
83
83
82
82
82
82
83
83
83
84
84
85
85
86
86
86
88
91
96
103
111
120
128
133
136
136
135
132
128
124
120
116
112
109
106
104
101
100
98
98
98
99
100
101
102
103
103
103
102
101
99
98
96
95
93
91
90
89
88
87
87
86
86
86
86
86
86
86
87
87
88
88
88
89
89
89
89
88
88
89
92
96
103
111
120
128
134
137
138
136
133
129
124
119
114
110
107
104
101
99
97
97
97
98
99
100
102
103
104
104
104
103
102
100
99
97
95
93
92
90
89
87
86
85
84
83
83
83
83
83
84
84
85
85
86
87
87
87
88
88
88
87
87
87
87
87
89
94
100
108
117
125
131
135
135
134
131
126
121
116
111
106
102
98
95
94
93
93
94
96
98
100
102
104
106
107
107
106
105
104
102
100
99
97
95
94
92
91
90
89
88
88
88
88
88
88
89
89
90
90
91
91
92
92
92
92
92
92
92
94
97
102
109
117
126
133
138
141
142
140
137
133
128
123
118
113
109
105
101
99
97
97
97
98
100
102
104
106
107
107
107
106
105
103
101
100
98
96
95
93
91
90
89
88
87
87
87
87
87
87
88
88
89
89
89
90
90
90
91
91
93
96
101
108
117
127
136
142
147
148
147
145
140
135
130
125
120
115
110
107
103
101
99
99
99
101
103
105
106
108
108
108
108
106
105
103
101
99
97
95
93
92
91
89
88
88
87
86
86
86
86
86
86
87
87
88
88
89
89
89
90
92
97
103
112
122
132
140
146
149
150
149
146
141
137
132
127
122
118
115
111
109
107
105
105
105
106
107
108
109
109
109
109
107
105
104
102
100
98
96
94
92
90
88
87
85
84
84
83
83
83
83
83
83
83
84
84
84
84
84
84
